Time, position, velocity
0, 1, 0
0.001, 1, -0.1
0.002, 0.9999, -0.19970000000000002
0.003, 0.9997003, -0.29909090000000005
0.004, 0.9994012091, -0.39816365730000003
0.005, 0.9990030454426999, -0.4969092872381
0.006, 0.9985061361554618, -0.5953188639206557
0.007, 0.9979108172915412, -0.6933835209444399
0.008, 0.9972174337705968, -0.7910944521107607
0.009000000000000001, 0.996426339318486, -0.8884429121314881
0.010000000000000002, 0.9955378964063545, -0.9854202173269422
0.011000000000000003, 0.9945524761890275, -1.0820177463155969
0.012000000000000004, 0.993470458442712, -1.1782269406955528
0.013000000000000005, 0.9922922315020164, -1.2740393057177373
0.014000000000000005, 0.9910181921962986, -1.3694464109507858
0.015000000000000006, 0.9896487457853478, -1.4644398909375633
0.016000000000000007, 0.9881843058944102, -1.5590114458432853
0.017000000000000008, 0.986625294448567, -1.6531528420951964
0.01800000000000001, 0.9849721416064717, -1.7468559130137675
0.01900000000000001, 0.9832252856934579, -1.8401125594353733
0.02000000000000001, 0.9813851731340225, -1.932914750326413
0.02100000000000001, 0.9794522583836961, -2.025254523388836
0.022000000000000013, 0.9774270038603072, -2.1171239856570394
0.023000000000000013, 0.9753098798746502, -2.208515314086099
0.024000000000000014, 0.9731013645605642, -2.299420756131306
0.025000000000000015, 0.9708019438044329, -2.3898326303189688
0.026000000000000016, 0.9684121111741139, -2.479743326808455
0.027000000000000017, 0.9659323678473054, -2.569145307945441
0.028000000000000018, 0.96336322253936, -2.6580311088063353
0.02900000000000002, 0.9607051914305537, -2.7463933377338523
0.03000000000000002, 0.9579587980928198, -2.8342246768637063
0.03100000000000002, 0.9551245734159561, -2.921517882642397
0.03200000000000002, 0.9522030555333137, -3.0082657863360653
0.03300000000000002, 0.9491947897469777, -3.0944612945303884
0.03400000000000002, 0.9461003284524473, -3.180097389621495
0.035000000000000024, 0.9429202310628257, -3.265167130297875
0.036000000000000025, 0.9396550639325278, -3.349663652013264
0.037000000000000026, 0.9363054002805146, -3.4335801674504767
0.03800000000000003, 0.9328718201130641, -3.5169099669761765
0.03900000000000003, 0.929354910146088, -3.5996464190865542
0.04000000000000003, 0.9257552637270015, -3.6817829708439036
0.04100000000000003, 0.9220734807561576, -3.763313148304072
0.04200000000000003, 0.9183101676078536, -3.8442305569347752
0.04300000000000003, 0.9144659370509188, -3.9245288820247564
0.04400000000000003, 0.9105414081688941, -4.004201889083774
0.04500000000000003, 0.9065372062798103, -4.083243424233412
0.046000000000000034, 0.9024539628555769, -4.1616474145886935
0.047000000000000035, 0.8982923154409882, -4.239407868630485
0.048000000000000036, 0.8940529075723577, -4.316518876568693
0.04900000000000004, 0.889736388695789, -4.392974610696222
0.05000000000000004, 0.8853434140850928, -4.468769325733712
0.05100000000000004, 0.8808746447593591, -4.54389735916502
0.05200000000000004, 0.876330747400194, -4.6183531315634605
0.05300000000000004, 0.8717123942686306, -4.69213114690879
0.05400000000000004, 0.8670202631217218, -4.765225992894926
0.05500000000000004, 0.8622550371288268, -4.837632341228414
0.05600000000000004, 0.8574174047875984, -4.909344947917611
0.057000000000000044, 0.8525080598396808, -4.980358653552618
0.058000000000000045, 0.8475277011861282, -5.050668383575928
0.059000000000000045, 0.8424770328025523, -5.120269148543813
0.060000000000000046, 0.8373567636540085, -5.189156044378437
0.06100000000000005, 0.83216760760963, -5.257324252610702
0.06200000000000005, 0.8269102833570193, -5.324769040613833
0.06300000000000004, 0.8215855143164055, -5.391485761827694
0.06400000000000004, 0.8161940285545778, -5.4574698559738515
0.06500000000000004, 0.810736558698604, -5.522716849261387
0.06600000000000004, 0.8052138418493425, -5.587222354583464
0.06700000000000005, 0.7996266194947591, -5.6509820717046475
0.06800000000000005, 0.7939756374230544, -5.713991787439009
0.06900000000000005, 0.7882616456356154, -5.776247375818998
0.07000000000000005, 0.7824853982597965, -5.837744798255103
0.07100000000000005, 0.7766476534615414, -5.8984801036863175
0.07200000000000005, 0.7707491733578551, -5.958449428721413
0.07300000000000005, 0.7647907239291337, -6.017648997771034
0.07400000000000005, 0.7587730749313627, -6.076075123170634
0.07500000000000005, 0.752696999808192, -6.133724205294258
0.07600000000000005, 0.7465632756028978, -6.190592732659194
0.07700000000000005, 0.7403726828702386, -6.246677282021507
0.07800000000000006, 0.7341260055882171, -6.301974518462466
0.07900000000000006, 0.7278240310697546, -6.356481195465901
0.08000000000000006, 0.7214675498742886, -6.4101941549864785
0.08100000000000006, 0.7150573557193022, -6.463110327508948
0.08200000000000006, 0.7085942453917933, -6.515226732098352
0.08300000000000006, 0.7020790186596949, -6.5665404764412365
0.08400000000000006, 0.6955124781832537, -6.617048756877883
0.08500000000000006, 0.6888954294263758, -6.666748858425574
0.08600000000000006, 0.6822286805679503, -6.715638154792935
0.08700000000000006, 0.6755130424131573, -6.763714108385352
0.08800000000000006, 0.668749328304772, -6.810974270301512
0.08900000000000007, 0.6619383540344704, -6.857416280321084
0.09000000000000007, 0.6550809377541493, -6.903037866883568
0.09100000000000007, 0.6481778998872657, -6.9478368470583325
0.09200000000000007, 0.6412300630402074, -6.991811126505884
0.09300000000000007, 0.6342382519137014, -7.034958699430387
0.09400000000000007, 0.627203293214271, -7.077277648523466
0.09500000000000007, 0.6201260155657475, -7.118766144899323
0.09600000000000007, 0.6130072494208482, -7.1594224480212
0.09700000000000007, 0.605847826972827, -7.199244905619221
0.09800000000000007, 0.5986485820672078, -7.238231953599645
0.09900000000000007, 0.5914103501136082, -7.276382115945567
0.10000000000000007, 0.5841339679976626, -7.313694004609091
0.10100000000000008, 0.5768202739930535, -7.35016631939503
0.10200000000000008, 0.5694701076736585, -7.385797847836151
0.10300000000000008, 0.5620843098258224, -7.4205874650600085
0.10400000000000008, 0.5546637223607623, -7.454534133647411
0.10500000000000008, 0.547209188227115, -7.487636903482545
0.10600000000000008, 0.5397215513236324, -7.519894911594808
0.10700000000000008, 0.5322016564120376, -7.5513073819923875
0.10800000000000008, 0.5246503490300453, -7.5818736254876145
0.10900000000000008, 0.5170684754045577, -7.6115930395141564
0.11000000000000008, 0.5094568823650435, -7.64046510793607
0.11100000000000008, 0.5018164172571075, -7.668489400848766
0.11200000000000009, 0.4941479278562587, -7.69566557437193
0.11300000000000009, 0.48645226228188676, -7.721993370434441
0.11400000000000009, 0.4787302689114523, -7.747472616551327
0.11500000000000009, 0.470982796294901, -7.772103225592818
0.11600000000000009, 0.4632106930693082, -7.795885195545529
0.11700000000000009, 0.45541480787376265, -7.818818609265824
0.11800000000000009, 0.44759598926449684, -7.840903634225403
0.11900000000000009, 0.43975508563027144, -7.8621405222491765
0.12000000000000009, 0.4318929451080223, -7.882529609245456
0.1210000000000001, 0.4240104154987768, -7.902071314928522
0.1220000000000001, 0.4161083441838483, -7.920766142533614
0.1230000000000001, 0.40818757804131467, -7.938614678524398
0.1240000000000001, 0.40024896336279026, -7.955617592292956
0.12500000000000008, 0.3922933457704973, -7.971775635852357
0.12600000000000008, 0.38432157013464496, -7.987089643521849
0.12700000000000009, 0.3763344804911231, -8.001560531604747
0.12800000000000009, 0.3683329199595184, -8.015189298059045
0.1290000000000001, 0.36031773066145933, -8.02797702216082
0.1300000000000001, 0.3522897536392985, -8.039924864160485
0.1310000000000001, 0.344249828775138, -8.051034064931933
0.1320000000000001, 0.3361987947102061, -8.06130594561465
0.1330000000000001, 0.3281374887645914, -8.070741907248827
0.1340000000000001, 0.3200667468573426, -8.07934343040354
0.1350000000000001, 0.31198740342693904, -8.087112074798064
0.1360000000000001, 0.30390029135214097, -8.094049478916364
0.1370000000000001, 0.29580624187322463, -8.10015735961483
0.1380000000000001, 0.2877060845136098, -8.105437511723308
0.1390000000000001, 0.27960064700188647, -8.109891807639498
0.1400000000000001, 0.271490755194247, -8.113522196916767
0.1410000000000001, 0.26337723299733024, -8.116330705845442
0.1420000000000001, 0.2552609022914848, -8.118319437027639
0.1430000000000001, 0.24714258285445714, -8.119490568945704
0.1440000000000001, 0.23902309228551144, -8.119846355524313
0.1450000000000001, 0.23090324592998712, -8.119389125686292
0.1460000000000001, 0.22278385680430082, -8.118121282902232
0.1470000000000001, 0.2146657355213986, -8.116045304733955
0.1480000000000001, 0.20654969021666464, -8.113163742371894
0.1490000000000001, 0.19843652647429275, -8.109479220166445
0.1500000000000001, 0.1903270472541263, -8.104994435153376
0.1510000000000001, 0.1822220528189729, -8.099712156573329
0.1520000000000001, 0.1741223406623996, -8.093635225385507
0.1530000000000001, 0.1660287054370141, -8.08676655377559
0.1540000000000001, 0.1579419388832385, -8.079109124657965
0.1550000000000001, 0.1498628297585805, -8.070665991172314
0.1560000000000001, 0.1417921637674082, -8.061440276174656
0.1570000000000001, 0.13373072349123355, -8.051435171722872
0.1580000000000001, 0.12567928831951067, -8.040653938556828
0.1590000000000001, 0.11763863438095384, -8.029099905573108
0.16000000000000011, 0.10960953447538073, -8.016776469294484
0.16100000000000012, 0.10159275800608625, -8.00368709333414
0.16200000000000012, 0.0935890709127521, -7.989835307854746
0.16300000000000012, 0.08559923560489736, -7.9752247090224575
0.16400000000000012, 0.07762401089587491, -7.95985895845588
0.16500000000000012, 0.06966415193741902, -7.9437417826701
0.16600000000000012, 0.061720410154748925, -7.9268769725158315
0.16700000000000012, 0.053793533182233094, -7.909268382613758
0.16800000000000012, 0.04588426479961934, -7.890919930784141
0.16900000000000012, 0.0379933448688352, -7.87183559747175
0.17000000000000012, 0.030121509271363447, -7.852019425166218
0.17100000000000012, 0.022269489846197227, -7.8314755178178554
0.17200000000000013, 0.014438014328379371, -7.810208040249021
0.17300000000000013, 0.00662780628813035, -7.788221217561112
0.17400000000000013, -0.0011604149294307618, -7.765519334537242
0.17500000000000013, -0.008925934263968004, -7.742106735040687
0.17600000000000013, -0.01666804099900869, -7.717987821409168
0.17700000000000013, -0.02438602882041786, -7.693167053845039
0.17800000000000013, -0.032079195874262896, -7.667648949801462
0.17900000000000013, -0.03974684482406436, -7.641438083364632
0.18000000000000013, -0.047388282907429, -7.614539084632131
0.18100000000000013, -0.05500282199206113, -7.586956639087492
0.18200000000000013, -0.06258977863114862, -7.558695486971024
0.18300000000000013, -0.07014847411811964, -7.529760422646996
0.18400000000000014, -0.07767823454076664, -7.500156293967243
0.18500000000000014, -0.08517839083473389, -7.469888001631265
0.18600000000000014, -0.09264827883636514, -7.438960498542897
0.18700000000000014, -0.10008723933490804, -7.407378789163632
0.18800000000000014, -0.10749461812407167, -7.37514792886265
0.18900000000000014, -0.11486976605293432, -7.342273023263655
0.19000000000000014, -0.12221203907619797, -7.30875922758857
0.19100000000000014, -0.12952079830378654, -7.274611745998185
0.19200000000000014, -0.13679541004978474, -7.239835830929812
0.19300000000000014, -0.14403524588071456, -7.204436782432045
0.19400000000000014, -0.1512396826631466, -7.168419947496677
0.19500000000000015, -0.15840810261064328, -7.1317907193878725
0.19600000000000015, -0.16553989333003116, -7.094554536968644
0.19700000000000015, -0.1726344478669998, -7.056716884024735
0.19800000000000015, -0.17969116475102453, -7.018283288585961
0.19900000000000015, -0.18670944803961048, -6.979259322245101
0.20000000000000015, -0.1936887073618556, -6.939650599474405
0.20100000000000015, -0.20062835796133, -6.899462776939796
0.20200000000000015, -0.20752782073826978, -6.858701552812843
0.20300000000000015, -0.21438652229108263, -6.817372666080578
0.20400000000000015, -0.2212038949571632, -6.775481895853228
0.20500000000000015, -0.22797937685301642, -6.733035060669952
0.20600000000000016, -0.23471241191368636, -6.690038017802641
0.20700000000000016, -0.241402449931489, -6.646496662557864
0.20800000000000016, -0.24804894659404686, -6.602416927577041
0.20900000000000016, -0.2546513635216239, -6.557804782134905
0.21000000000000016, -0.2612091683037588, -6.512666231436338
0.21100000000000016, -0.2677218345351951, -6.467007315911653
0.21200000000000016, -0.27418884185110676, -6.420834110510398
0.21300000000000016, -0.2806096759616172, -6.374152723993756
0.21400000000000016, -0.28698382868561095, -6.326969298225613
0.21500000000000016, -0.2933107979838366, -6.279290007462375
0.21600000000000016, -0.29959008799129894, -6.231121057641604
0.21700000000000016, -0.30582120904894056, -6.18246868566955
0.21800000000000017, -0.31200367773461013, -6.133339158707647
0.21900000000000017, -0.3181370168933178, -6.083738773458063
0.22000000000000017, -0.3242207556667759, -6.033673855448357
0.22100000000000017, -0.3302544295222242, -5.983150758315334
0.22200000000000017, -0.33623758028053957, -5.932175863088166
0.22300000000000017, -0.3421697561436277, -5.880755577470848
0.22400000000000017, -0.3480505117210986, -5.828896335124073
0.22500000000000017, -0.35387940805622264, -5.7766045949465905
0.22600000000000017, -0.35965601265116925, -5.723886840356128
0.22700000000000017, -0.3653798994915254, -5.670749578569943
0.22800000000000017, -0.37105064907009533, -5.61719933988508
0.22900000000000018, -0.3766678484099804, -5.563242676958415
0.23000000000000018, -0.3822310910869388, -5.508886164086542
0.23100000000000018, -0.3877399772510254, -5.4541363964855885
0.23200000000000018, -0.39319411364751095, -5.3989999895710294
0.23300000000000018, -0.398593113637082, -5.343483578237565
0.23400000000000018, -0.40393659721531955, -5.287593816139145
0.23500000000000018, -0.4092241910314587, -5.231337374969195
0.23600000000000018, -0.41445552840642785, -5.174720943741142
0.23700000000000018, -0.419630249350169, -5.117751228069276
0.23800000000000018, -0.4247480005782383, -5.060434949450051
0.23900000000000018, -0.4298084355276884, -5.002778844543877
0.24000000000000019, -0.43481121437223225, -4.944789664457477
0.2410000000000002, -0.43975600403668974, -4.886474174026881
0.2420000000000002, -0.4446424782107166, -4.827839151101131
0.2430000000000002, -0.44947031736181775, -4.768891385826755
0.2440000000000002, -0.4542392087476445, -4.709637679933094
0.2450000000000002, -0.4589488464275776, -4.65008484601853
0.2460000000000002, -0.46359893127359614, -4.590239706837716
0.2470000000000002, -0.46818917098043383, -4.530109094589843
0.2480000000000002, -0.4727192800750237, -4.4696998502080305
0.2490000000000002, -0.4771889799252317, -4.409018822649904
0.25000000000000017, -0.48159799874788156, -4.348072868189432
0.25100000000000017, -0.485946071616071, -4.286868849710075
0.25200000000000017, -0.4902329404657811, -4.225413635999337
0.25300000000000017, -0.4944583541017804, -4.163714101044762
0.25400000000000017, -0.4986220682028252, -4.101777123331449
0.25500000000000017, -0.5027238453261567, -4.039609585141172
0.25600000000000017, -0.5067634549112978, -3.9772183718531333
0.2570000000000002, -0.510740673283151, -3.914610371246444
0.2580000000000002, -0.5146552836543974, -3.8517924728043895
0.2590000000000002, -0.5185070761272018, -3.7887715670205364
0.2600000000000002, -0.5222958476942223, -3.7255545447067546
0.2610000000000002, -0.5260214022389291, -3.662148296303212
0.2620000000000002, -0.5296835505352323, -3.5985597111904095
0.2630000000000002, -0.5332821102464227, -3.534795677003315
0.2640000000000002, -0.536816905923426, -3.470863078947663
0.2650000000000002, -0.5402877690023736, -3.4067687991184776
0.2660000000000002, -0.5436945378014921, -3.342519715820885
0.2670000000000002, -0.547037057517313, -3.278122702893273
0.2680000000000002, -0.5503151802202063, -3.213584629032862
0.2690000000000002, -0.5535287648492392, -3.1489123571237427
0.2700000000000002, -0.556677677206363, -3.084112743567448
0.2710000000000002, -0.5597617899499304, -3.019192637616109
0.2720000000000002, -0.5627809825875465, -2.9541588807082677
0.2730000000000002, -0.5657351414682548, -2.8890183058073884
0.2740000000000002, -0.5686241597740621, -2.823777736743141
0.2750000000000002, -0.5714479375108052, -2.758443987555505
0.2760000000000002, -0.5742063814983608, -2.693023861841758
0.2770000000000002, -0.5768994053602026, -2.627524152106397
0.2780000000000002, -0.579526929512309, -2.5619516391140578
0.2790000000000002, -0.5820888811514231, -2.4963130912454847
0.2800000000000002, -0.5845851942426686, -2.430615263856606
0.2810000000000002, -0.5870158095065252, -2.364864898640769
0.2820000000000002, -0.589380674405166, -2.2990687229941944
0.2830000000000002, -0.5916797431281602, -2.233233449384695
0.2840000000000002, -0.5939129765775448, -2.167365774723725
0.2850000000000002, -0.5960803423522686, -2.101472379741799
0.2860000000000002, -0.5981818147320104, -2.0355599283673467
0.2870000000000002, -0.6002173746603777, -1.9696350671090437
0.2880000000000002, -0.6021870097274867, -1.9037044244416788
0.2890000000000002, -0.6040907141519284, -1.837774610195605
0.2900000000000002, -0.605928488762124, -1.7718522149498253
0.2910000000000002, -0.6077003409770738, -1.7059438094287633
0.2920000000000002, -0.6094062847865026, -1.6400559439027695
0.2930000000000002, -0.6110463407304054, -1.574195147592411
0.2940000000000002, -0.6126205358779978, -1.5083679280765931
0.2950000000000002, -0.6141289038060744, -1.4425807707045637
0.2960000000000002, -0.615571484576779, -1.3768401380118425
0.2970000000000002, -0.6169483247147909, -1.311152469140129
0.2980000000000002, -0.618259477183931, -1.2455241792612295
0.2990000000000002, -0.6195050013631923, -1.1799616590050528
0.3000000000000002, -0.6206849630221973, -1.1144712738917184
0.3010000000000002, -0.6217994342960891, -1.0490593637678236
0.3020000000000002, -0.622848493659857, -0.9837322422469112
0.3030000000000002, -0.6238322259021039, -0.9184961961541849
0.3040000000000002, -0.624750722098258, -0.8533574849755119
0.3050000000000002, -0.6256040795832335, -0.7883223403107595
0.3060000000000002, -0.6263924019235443, -0.7233969653315039
0.3070000000000002, -0.6271157988888758, -0.658587534243155
0.3080000000000002, -0.627774386423119, -0.593900191751538
0.3090000000000002, -0.6283682866148705, -0.5293410525339715
0.3100000000000002, -0.6288976276674045, -0.4649162007148825
0.3110000000000002, -0.6293625438681194, -0.40063168934599735
0.3120000000000002, -0.6297631755574654, -0.33649353989114744
0.3130000000000002, -0.6300996690973566, -0.27250774171572745
0.3140000000000002, -0.6303721768390723, -0.2086802515808446
0.3150000000000002, -0.6305808570906531, -0.14501699314219485
0.3160000000000002, -0.6307258740837953, -0.08152385645370294
0.3170000000000002, -0.630807397940249, -0.01820669747596229
0.3180000000000002, -0.630825604637725, 0.0449286624104905
0.31900000000000023, -0.6307806759753145, 0.10787643688703152
0.32000000000000023, -0.6306727995384275, 0.17063087517390188
0.32100000000000023, -0.6305021686632536, 0.2331862625022229
0.32200000000000023, -0.6302689824007514, 0.2955369205810416
0.32300000000000023, -0.6299734454801703, 0.3576772080593736
0.32400000000000023, -0.629615768272111, 0.41960152098321246
0.32500000000000023, -0.6291961667511278, 0.4813042932474739
0.32600000000000023, -0.6287148624578803, 0.5427799970428443
0.32700000000000023, -0.6281720824608374, 0.6040231432975038
0.32800000000000024, -0.6275680593175399, 0.665028282113695
0.32900000000000024, -0.6269030310354262, 0.7257900031991079
0.33000000000000024, -0.6261772410322272, 0.7863029362930533
0.33100000000000024, -0.6253909380959342, 0.8465617515873968
0.33200000000000024, -0.6245443763443468, 0.906561160142228
