Time, components/gearBox.gearBox.motor_speed, car.car.x, velocity, throttle, brake_cmd
0, 642.0997438200768, 0, 0, 0, 0
0.01, 641.9272959997977, 0, 0.004402896899489461, 0.00999966667999946, 0
0.02, 641.4094134820662, 2.448314676467424E-05, 0.017667744888418543, 0.019997333759930933, 0
0.03, 640.5454894920599, 9.819978502416984E-05, 0.03993959849287152, 0.029991003238820143, 0
0.04, 639.3346963647434, 0.0002464396930470977, 0.07146343565988726, 0.03997868031116357, 0
0.05, 637.776278338362, 0.0004953150115614129, 0.11258901750105149, 0.04995837495787998, 0
0.060000000000000005, 635.8699970185132, 0.0008720595038676544, 0.16377783781856142, 0.0599281035291435, 0
0.07, 633.6167685916491, 0.0014053501190818781, 0.22561229690852588, 0.06988589031642899, 0
0.08, 631.0195482009311, 0.002125657243389232, 0.29880725507707884, 0.07982976911113136, 0
0.09, 628.0845374196142, 0.0030656304733075544, 0.38422412076779183, 0.0897577847471601, 0
0.09999999999999999, 624.8228166063701, 0.00426052715328795, 0.48288759003705545, 0.0996679946249558, 0
0.10999999999999999, 621.2525360811246, 0.005748691154400193, 0.5960050520223018, 0.10955847021442952, 0
0.11999999999999998, 617.4018388638289, 0.007572089207688371, 0.7249884672527963, 0.11942729853438587, 0
0.12999999999999998, 613.31273190871, 0.009776911179079273, 0.8714781476909035, 0.1292725836060583, 0
0.13999999999999999, 609.0461676078748, 0.012414238399798834, 1.0373672233644193, 0.139092447878458, 0
0.15, 604.6886312906394, 0.015540779647751694, 1.224824535046664, 0.14888503362331798, 0
0.16, 600.3605296348572, 0.019219666277493667, 1.436312070535655, 0.1586485042974989, 0
0.17, 596.226594894591, 0.02352128445130671, 1.6745906720677821, 0.16838104587081473, 0
0.18000000000000002, 592.5082855856369, 0.028524101045783887, 1.9427044560350522, 0.17808086811733023, 0
0.19000000000000003, 589.4976633886627, 0.03431540804507729, 2.2439303307500955, 0.18774620586828544, 0
0.20000000000000004, 587.5713202715774, 0.04099186645659686, 2.58167493039275, 0.19737532022490403, 0
0.21000000000000005, 587.2015155669261, 0.04865967672052089, 2.959299165819578, 0.20696649972945264, 0
0.22000000000000006, 588.9598451814472, 0.057434147546580015, 3.3798541589758906, 0.21651806149302888, 0
0.23000000000000007, 593.5070452274393, 0.06743840143414223, 3.8457268728650353, 0.22602835227867102, 0
0.24000000000000007, 601.5621867999594, 0.07880098102222664, 4.358223671501879, 0.23549574953849803, 0
0.25000000000000006, 613.8473666779819, 0.0916522516573344, 4.917162920680387, 0.2449186624037092, 0
0.26000000000000006, 631.0112717177738, 0.10611975621565715, 5.520587187431801, 0.2542955326263912, 0
0.2700000000000001, 653.5452535762215, 0.12232302452032338, 6.164711853544911, 0.2636248354722034, 0
0.2800000000000001, 681.7135457719219, 0.14036863500033808, 6.844175364160787, 0.2729050805631328, 0
0.2900000000000001, 715.5185386822288, 0.16034639353002172, 7.55255652788035, 0.2821348126696342, 0
0.3000000000000001, 754.71078630804, 0.18232724609415904, 8.283027787909605, 0.291312612451591, 0
0.3100000000000001, 798.8375386408943, 0.2063630759181304, 9.028977512393446, 0.3004370971476542, 0
0.3200000000000001, 847.3122707388769, 0.23248807873642174, 9.784473680999527, 0.30950692121263856, 0
0.3300000000000001, 899.4858440267728, 0.2607211506529602, 10.544520304366628, 0.318520776902771, 0
0.34000000000000014, 954.705624035188, 0.2910687015958456, 11.305127920500945, 0.32747739480870547, 0
0.35000000000000014, 1012.3568338636403, 0.32352744200591577, 12.063254941336535, 0.3363755443363324, 0
0.36000000000000015, 1071.8866078929912, 0.3580868715738876, 12.816679828707006, 0.34521403413552104, 0
0.37000000000000016, 1132.8143653159393, 0.39473135372947, 13.56385007562012, 0.35399171247704614, 0
0.38000000000000017, 1194.7328543715792, 0.43344176258589784, 14.303736228663736, 0.3627074675780513, 0
0.3900000000000002, 1257.303643585145, 0.47419674414678703, 15.03570471857685, 0.37136022787650785, 0
0.4000000000000002, 1320.2498318867442, 0.5169736552666481, 15.759413851743817, 0.37994896225522506, 0
0.4100000000000002, 1383.3477885061707, 0.5617492462265244, 16.474732193050876, 0.38847268021606124, 0
0.4200000000000002, 1446.4189902781732, 0.6085001459095856, 17.181676319358473, 0.3969304320050777, 0
0.4300000000000002, 1509.3225146147224, 0.6572031984598419, 17.880364310434764, 0.40532130868946314, 0
0.4400000000000002, 1571.9484263768263, 0.7078356900941197, 18.570981536709354, 0.4136444421871353, 0
0.45000000000000023, 1634.2121108137171, 0.7603754957608359, 19.25375581365127, 0.4218990052500081, 0
0.46000000000000024, 1696.049505764742, 0.814801167998704, 19.92893956889312, 0.43008421140197967, 0
0.47000000000000025, 1757.413140460117, 0.8710919845949999, 20.59679719697488, 0.4381993148327679, 0
0.48000000000000026, 1818.2688729318652, 0.9292279672512618, 21.257596218107324, 0.44624361024877984, 0
0.49000000000000027, 1878.5932191143975, 0.9891898801689551, 21.911601207403844, 0.4542164326822593, 0
0.5000000000000002, 1938.371175728766, 1.0509592150226965, 22.55906973001034, 0.4621171572600099, 0
0.5100000000000002, 1997.5944511862178, 1.114518166988185, 23.20024972022384, 0.4699451989330378, 0
0.5200000000000002, 2056.2600314101755, 1.179849605172849, 23.83537789347209, 0.47770001216849817, 0
0.5300000000000002, 2114.3690193607963, 1.2469370398341069, 24.4646788913095, 0.4853810906053717, 0
0.5400000000000003, 2171.925697593356, 1.3157645880688493, 25.088364941302803, 0.4929879666753245, 0
0.5500000000000003, 2228.936772234742, 1.3863169391483012, 25.70663587350292, 0.5005202111902354, 0
0.5600000000000003, 2285.410764370544, 1.4585793203031918, 26.319679378917098, 0.5079774328978963, 0
0.5700000000000003, 2341.3575211415327, 1.532537463497374, 26.92767142731203, 0.5153592780074099, 0
0.5800000000000003, 2396.787824028009, 1.6081775735359638, 27.530776784967205, 0.5226654296858211, 0
0.5900000000000003, 2451.71307602936, 1.685486297716538, 28.129149589983523, 0.5298956075275296, 0
0.6000000000000003, 2506.1450528855225, 1.764450697134144, 28.722933955134245, 0.5370495669980355, 0
0.6100000000000003, 2560.0957062779016, 1.845058219682068, 29.312264577262713, 0.5441270988535677, 0
0.6200000000000003, 2613.5770092091957, 1.9272966747425728, 29.897267338789053, 0.5511280285381471, 0
0.6300000000000003, 2666.6008355940207, 2.011154209529417, 30.478059891644847, 0.5580522155596246, 0
0.6400000000000003, 2719.178867577065, 2.0966192870226332, 31.05475221739338, 0.5648995528462253, 0
0.6500000000000004, 2771.3225252993643, 2.18368066542273, 31.62744715976577, 0.5716699660851174, 0
0.6600000000000004, 2823.0429148101625, 2.2723273790438743, 32.196240927607874, 0.578363413044506, 0
0.6700000000000004, 2874.3507906154755, 2.362548720562098, 32.76122356747968, 0.584979882880729, 0
0.6800000000000004, 2925.256529999938, 2.454334224533885, 33.32247940601615, 0.5915193954318168, 0
0.6900000000000004, 2975.7701167842038, 2.547673652101789, 33.88008746274924, 0.5979820004989416, 0
0.7000000000000004, 1893.6722638143779, 2.642556976806333, 34.433746664691945, 0.6043677771171637, 0
0.7100000000000004, 1924.5369631172339, 2.7389722956173888, 34.98357539808819, 0.6106768328168444, 0
0.7200000000000004, 1955.1944167191064, 2.836910213039457, 35.53004509392313, 0.6169093028770652, 0
0.7300000000000004, 1985.6479353268642, 2.936361473310406, 36.07320831024198, 0.6230653495723613, 0
0.7400000000000004, 2015.900778400177, 3.037316962935601, 36.61311499162811, 0.6291451614140356, 0
0.7500000000000004, 2045.9561402484935, 3.1397677036178706, 37.149812604717525, 0.6351489523872875, 0
0.7600000000000005, 2075.8171394383353, 3.243704845561458, 37.68334627133722, 0.6410769611853466, 0
0.7700000000000005, 2105.4868109453114, 3.349119661141646, 38.213758898211836, 0.6469294504417669, 0
0.7800000000000005, 2134.968100575161, 3.456003538929293, 38.741091302484435, 0.6527067059619902, 0
0.7900000000000005, 2164.2638612538294, 3.564347978057787, 39.26538233253318, 0.6584090359552512, 0
0.8000000000000005, 2193.376850850376, 3.6741445829187707, 39.7866689837498, 0.6640367702678491, 0
0.8100000000000005, 2222.309731250272, 3.785385058172297, 40.30498650908869, 0.669590259618771, 0
0.8200000000000005, 2251.0650684420184, 3.8980612040567015, 40.820368524305735, 0.6750698748386081, 0
0.8300000000000005, 2279.64533341823, 4.012164911983403, 41.33284710789005, 0.6804760061126621, 0
0.8400000000000005, 2308.0529037246456, 4.127688160401939, 41.84245289575563, 0.6858090622290949, 0
0.8500000000000005, 2336.290065517732, 4.244623010920816, 42.34921517080683, 0.6910694698329309, 0
0.8600000000000005, 2364.3590160145873, 4.362961604670119, 42.85316194752643, 0.6962576726866818, 0
0.8700000000000006, 2392.2618662382188, 4.482696158892279, 43.3543200517587, 0.7013741309383128, 0
0.8800000000000006, 2420.000643977716, 4.603818963747912, 43.85271519587668, 0.7064193203972355, 0
0.8900000000000006, 2447.5772968966276, 4.726322379324174, 44.348372049532486, 0.7113937318189627, 0
0.9000000000000006, 2474.993695734566, 4.850198832833644, 44.84131430619487, 0.7162978701990246, 0
0.9100000000000006, 2502.2516375568734, 4.975440815992316, 45.33156474567959, 0.7211322540767001, 0
0.9200000000000006, 2529.352849015525, 5.102040882565873, 45.819145292876854, 0.7258974148490809, 0
0.9300000000000006, 2556.2989895914, 5.229991646073934, 46.30407707287642, 0.730593896095944, 0
0.9400000000000006, 2583.091654793956, 5.35928577764256, 46.78638046268613, 0.7352222529158695, 0
0.9500000000000006, 2609.7323792992715, 5.489916003995828, 47.26607513973308, 0.7397830512740046, 0
0.9600000000000006, 2636.2226400115755, 5.62187510557778, 47.74318012732988, 0.7442768673618376, 0
0.9700000000000006, 2662.5638590368403, 5.755155914796579, 48.21771383728069, 0.748704286969309, 0
0.9800000000000006, 2688.7574065599356, 5.8897513143831555, 48.6896941097943, 0.7530659048695524, 0
0.9900000000000007, 2714.8046036192086, 6.0256542358570915, 49.15913825086295, 0.7573623242165266, 0
1.0000000000000007, 2740.7067247744235, 6.162857658092927, 49.62606306725827, 0.7615941559557652, 0
1.0100000000000007, 2766.4650006655756, 6.301354605980461, 50.090484899287496, 0.7657620182484391, 0
1.0200000000000007, 2792.0806204615137, 6.441138149173032, 50.55241965144547, 0.7698665359089006, 0
1.0300000000000007, 2817.5547341983743, 6.582201400918104, 51.01188282109057, 0.7739083398558423, 0
1.0400000000000007, 2842.8884550087637, 6.724537516964853, 51.46888952526543, 0.7778880665771851, 0
1.0500000000000007, 2868.08286124331, 6.868139694543758, 51.923454525776414, 0.7818063576087744, 0
1.0600000000000007, 2893.1389984868283, 7.013001171413509, 52.37559225263923, 0.7856638590269439, 0
1.0700000000000007, 2918.057881471728, 7.159115224970853, 52.82531682599159, 0.7894612209549807, 0
1.0800000000000007, 2942.8404958917063, 7.306475171419238, 53.272642076568076, 0.7931990970835011, 0
1.0900000000000007, 2967.48780011895, 7.455074364992397, 53.71758156482647, 0.7968781442047269, 0
1.1000000000000008, 2992.0007268283175, 7.604906197229257, 54.1601485988095, 0.8004990217606299, 0
1.1100000000000008, 1809.9648949376963, 7.75596409629675, 54.600338148449964, 0.8040623914048923, 0
1.1200000000000008, 1824.5032902902014, 7.908241426032018, 55.03816475201508, 0.8075689165786146, 0
1.1300000000000008, 1838.9633277159444, 8.061731694608586, 55.47366034883885, 0.8110192620996817, 0
1.1400000000000008, 1853.3454646538016, 8.216428444099035, 55.9068371601139, 0.8144140937656863, 0
1.1500000000000008, 1867.650151040401, 8.372325250294715, 56.33770724740384, 0.817754077970288, 0
1.1600000000000008, 1881.877829684501, 8.529415722276648, 56.76628252262826, 0.8210398813328774, 0
1.1700000000000008, 1896.0289366273253, 8.687693502013278, 57.192574757413425, 0.8242721703413979, 0
1.1800000000000008, 1910.1039014884636, 8.847152263983332, 57.61659559184223, 0.827451611008167, 0
1.1900000000000008, 1924.103147797128, 9.007785714822173, 58.03835654263557, 0.8305788685385287, 0
1.2000000000000008, 1938.0270933086958, 9.16958759299011, 58.457869010796095, 0.8336546070121554, 0
1.2100000000000009, 1951.8761503065882, 9.332551668461223, 58.875144288743954, 0.8366794890768109, 0
1.2200000000000009, 1965.6507258896245, 9.496671742431314, 59.29019356697268, 0.8396541756543756, 0
1.2300000000000009, 1979.351222245081, 9.661941647043703, 59.70302794025236, 0.8425793256589298, 0
1.2400000000000009, 1992.9780369077434, 9.828355245131643, 60.11365841340563, 0.8454555957266805, 0
1.2500000000000009, 2006.5315630052971, 9.995906429976207, 60.522095906681145, 0.8482836399575131, 0
1.260000000000001, 2020.01218949043, 10.164589125078557, 60.928351260747654, 0.8510641096679441, 0
1.270000000000001, 2033.420301360074, 10.334397283945563, 61.33243524133103, 0.8537976531552438, 0
1.280000000000001, 2046.7562798622114, 10.505324889887847, 61.73435854351502, 0.8564849154724976, 0
1.290000000000001, 2060.0205026907024, 10.677365955829291, 62.13413179572596, 0.859126538214366, 0
1.300000000000001, 2073.213344168602, 10.850514524127211, 62.531765563420095, 0.8617231593133066, 0
1.310000000000001, 2086.335175420424, 11.02476466640236, 62.92727035249161, 0.8642754128460113, 0
1.320000000000001, 2099.3863645338392, 11.200110483378026, 63.320656612418425, 0.8667839288498189, 0
1.330000000000001, 2112.3672767112553, 11.376546104727515, 63.711934739161585, 0.869249333148855, 0
1.340000000000001, 2125.278274411759, 11.55406568892936, 64.10111507783377, 0.8716722471896523, 0
1.350000000000001, 2138.11971748387, 11.732663423129624, 64.48820792515106, 0.8740532878860072, 0
1.360000000000001, 2150.8919632895445, 11.912333523010732, 64.87322353168182, 0.8763930674728231, 0
1.370000000000001, 2163.5953668198863, 12.093070232666266, 65.25617210390534, 0.878692193368696, 0
1.380000000000001, 2176.230280802959, 12.274867824481232, 65.63706380609254, 0.8809512680469972, 0
1.390000000000001, 2188.7970558041447, 12.45772059901731, 66.01590876202019, 0.8831708889152078, 0
1.400000000000001, 2201.296040319415, 12.64162288490264, 66.39271705652946, 0.8853516482022628, 0
1.410000000000001, 2213.727580861922, 12.826569038725726, 66.76749873693906, 0.8874941328536655, 0
1.420000000000001, 2226.092022042265, 13.01255344493308, 67.14026381432258, 0.8895989244341316, 0
1.430000000000001, 2238.3897066427967, 13.199570515730215, 67.51102226465922, 0.8916665990375281, 0
1.440000000000001, 2250.6209756862995, 13.387614690985691, 67.87978402986636, 0.8936977272038727, 0
1.450000000000001, 2262.7861684993727, 13.57668043813784, 68.2465590187223, 0.8956928738431648, 0
1.460000000000001, 2274.885622770826, 13.76676225210393, 68.6113571076864, 0.8976525981658169, 0
1.470000000000001, 2286.919674605395, 13.957854655191461, 68.97418814162434, 0.8995774536194672, 0
1.480000000000001, 2298.8886585730447, 14.149952197011347, 69.33506193444465, 0.9014679878319469, 0
1.490000000000001, 2310.7929077541507, 14.34304945439275, 69.69398826965349, 0.9033247425601898, 0
1.500000000000001, 2322.6327537808, 14.53714103129935, 70.05097690083319, 0.9051482536448666, 0
1.5100000000000011, 2334.4085268744657, 14.732221558746835, 70.40603755205045, 0.9069390509705373, 0
1.5200000000000011, 2346.1205558802876, 14.92828569472143, 70.7591799181994, 0.9086976584311128, 0
1.5300000000000011, 2357.7691682981795, 15.125328124099305, 71.1104136652846, 0.9104245939004267, 0
1.5400000000000011, 2369.3546903109677, 15.32334355856667, 71.4597484306486, 0.9121203692077176, 0
1.5500000000000012, 2380.8774468097704, 15.522326736540446, 71.80719382314831, 0.913785490117828, 0
1.5600000000000012, 2392.337761416792, 15.722272423089347, 72.15275942328472, 0.9154204563159326, 0
1.5700000000000012, 2403.7359565057236, 15.923175409855261, 72.4964547832894, 0.9170257613966085, 0
1.5800000000000012, 2415.072353219913, 16.125030514974817, 72.8382894271717, 0.9186018928570673, 0
1.5900000000000012, 2426.3472714884565, 16.327832583001037, 73.17827285073004, 0.9201493320943727, 0
1.6000000000000012, 2437.5610300403737, 16.531576484824953, 73.51641452153032, 0.9216685544064714, 0
1.6100000000000012, 2448.713946417004, 16.736257117597138, 73.85272387885466, 0.9231600289968693, 0
1.6200000000000012, 2459.8063369827455, 16.94186940464905, 74.18721033362313, 0.9246242189827882, 0
1.6300000000000012, 2470.8385169342873, 17.14840829541413, 74.51988326829125, 0.9260615814066461, 0
1.6400000000000012, 2481.8108003084303, 17.355868765348553, 74.85075203672557, 0.9274725672507035, 0
1.6500000000000012, 2492.723499988617, 17.564245815851656, 75.17982596405965, 0.9288576214547278, 0
1.6600000000000013, 2503.57692771028, 17.773534474185894, 75.5071143465327, 0.9302171829365264, 0
1.6700000000000013, 2514.3713940650982, 17.983729793396343, 75.83262645131285, 0.9315516846152084, 0
1.6800000000000013, 2525.1072085042633, 18.1948268522297, 76.15637151630682, 0.9328615534370351, 0
1.6900000000000013, 2535.7846793408326, 18.40682075505272, 76.47835874995782, 0.9341472104037277, 0
1.7000000000000013, 2546.404113751261, 18.6197066317701, 76.79859733103336, 0.9354090706030991, 0
1.7100000000000013, 2556.965817776179, 18.833479637741725, 77.11709640840438, 0.9366475432418874, 0
1.7200000000000013, 2567.470096320495, 19.048134953699325, 77.43386510081716, 0.9378630316806653, 0
1.7300000000000013, 2577.9172531528843, 19.263667785662467, 77.7489124966593, 0.9390559334707118, 0
1.7400000000000013, 2588.307590904734, 19.4800733648539, 78.0622476537211, 0.9402266403927276, 0
1.7500000000000013, 2598.6414110685932, 19.697346947614232, 78.37387959895322, 0.9413755384972875, 0
1.7600000000000013, 2608.9190139961884, 19.915483815315916, 78.68381732822189, 0.9425030081469201, 0
1.7700000000000014, 2619.1406988960584, 20.134479274276572, 78.9920698060626, 0.9436094240597149, 0
1.7800000000000014, 2629.306763830855, 20.354328655671612, 79.29864596543307, 0.9446951553543539, 0
1.7900000000000014, 2639.4175057143398, 20.57502731544618, 79.60355470746633, 0.945760565596474, 0
1.8000000000000014, 2649.4732203081494, 20.796570634226416, 79.90680490122483, 0.9468060128462684, 0
1.8100000000000014, 2659.4742022183273, 21.01895401723001, 80.20840538345605, 0.9478318497072342, 0
1.8200000000000014, 2669.420744891698, 21.242172894176118, 80.50836495835043, 0.9488384233759848, 0
1.8300000000000014, 2679.3131406120897, 21.466222719194597, 80.80669239730206, 0.9498260756930405, 0
1.8400000000000014, 2689.151680496439, 21.69109897073455, 81.10339643867282, 0.9507951431945213, 0
1.8500000000000014, 2698.9366544908257, 21.916797151472267, 81.39848578756029, 0.9517459571646617, 0
1.8600000000000014, 2708.6683513664334, 22.143312788218495, 81.69196911557, 0.9526788436890777, 0
1.8700000000000014, 2718.3470587154916, 22.370641431825092, 81.9838550605924, 0.953594123708712, 0
1.8800000000000014, 2727.973062947194, 22.598778657091074, 82.27415222658477, 0.9544921130743922, 0
1.8900000000000015, 2737.546649283635, 22.82772006266805, 82.56286918335864, 0.9553731226019356, 0
1.9000000000000015, 2747.068101755772, 23.057461270965078, 82.8500144663728, 0.9562374581277392, 0
1.9100000000000015, 2756.5377031994244, 23.287997928052974, 83.13559657653222, 0.9570854205647931, 0
1.9200000000000015, 2765.955735251351, 23.519325703568033, 83.41962397999323, 0.9579173059590635, 0
1.9300000000000015, 2775.3224783453875, 23.751440290615257, 83.70210510797487, 0.9587334055461877, 0
1.9400000000000015, 2784.638211708681, 23.984337405671038, 83.98304835657693, 0.9595340058084293, 0
1.9500000000000015, 2793.9032133580204, 24.218012788485364, 84.2624620866045, 0.9603193885318451, 0
1.9600000000000015, 2803.117760096282, 24.45246220198353, 84.5403546233995, 0.961089830863614, 0
1.9700000000000015, 2812.2821275089923, 24.687681432167413, 84.8167342566789, 0.9618456053694838, 0
1.9800000000000015, 2821.396589961027, 24.92366628801628, 85.09160924038011, 0.962586980091291, 0
1.9900000000000015, 2830.4614205934377, 25.1604126013872, 85.36498779251329, 0.9633142186045135, 0
